# Pulseq sequence file
# Created by PyPulseq

[VERSION]
major 1
minor 5
revision 0

[DEFINITIONS]
AdcRasterTime 1e-07 
BlockDurationRaster 1e-05 
GradientRasterTime 1e-05 
RadiofrequencyRasterTime 1e-06 
TotalDuration 2.41462 

# Format of blocks:
# NUM DUR RF  GX  GY  GZ  ADC  EXT
[BLOCKS]
  1 112   1   0   0   0  0  0
  2 500   0   0   0   0  0  0
  3 212   2   0   0   0  0  0
  4 500   0   0   0   0  0  0
  5 500   0   0   0   0  0  0
  6 212   2   0   0   0  0  0
  7 500   0   0   0   0  0  0
  8 500   0   0   0   0  0  0
  9 212   3   0   0   0  0  0
 10 500   0   0   0   0  0  0
 11 500   0   0   0   0  0  0
 12 212   3   0   0   0  0  0
 13 500   0   0   0   0  0  0
 14 212   4   0   0   0  0  0
 15 212   5   0   0   0  0  0
 16 212   6   0   0   0  0  0
 17 7000   0   0   0   0  0  0
 18 112   7   0   0   0  0  0
 19 357   0   0   0   0  0  0
 20 112   7   0   0   0  0  0
 21 120   0   1   2   2  0  0
 22 262   0   3   0   0  1  0
 23 120   0   1   2   2  0  0
 24 112   8   0   0   0  0  0
 25 120   0   1   4   5  0  0
 26 262   0   3   0   0  2  0
 27 120   0   1   6   7  0  0
 28 112   7   0   0   0  0  0
 29 120   0   1   8   9  0  0
 30 262   0   3   0   0  1  0
 31 120   0   1  10  11  0  0
 32 112   8   0   0   0  0  0
 33 120   0   1  12   5  0  0
 34 262   0   3   0   0  2  0
 35 120   0   1  13   7  0  0
 36 112   7   0   0   0  0  0
 37 120   0   1  12  14  0  0
 38 262   0   3   0   0  1  0
 39 120   0   1  13  15  0  0
 40 112   8   0   0   0  0  0
 41 120   0   1  16  17  0  0
 42 262   0   3   0   0  2  0
 43 120   0   1  18  19  0  0
 44 112   7   0   0   0  0  0
 45 120   0   1  16  20  0  0
 46 262   0   3   0   0  1  0
 47 120   0   1  18  21  0  0
 48 112   8   0   0   0  0  0
 49 120   0   1  13  19  0  0
 50 262   0   3   0   0  2  0
 51 120   0   1  12  17  0  0
 52 112   7   0   0   0  0  0
 53 120   0   1  22  23  0  0
 54 262   0   3   0   0  1  0
 55 120   0   1  24  25  0  0
 56 112   8   0   0   0  0  0
 57 120   0   1  26  25  0  0
 58 262   0   3   0   0  2  0
 59 120   0   1  27  23  0  0
 60 112   7   0   0   0  0  0
 61 120   0   1  28  23  0  0
 62 262   0   3   0   0  1  0
 63 120   0   1  29  25  0  0
 64 112   8   0   0   0  0  0
 65 120   0   1  29  30  0  0
 66 262   0   3   0   0  2  0
 67 120   0   1  28  31  0  0
 68 112   7   0   0   0  0  0
 69 120   0   1  32  33  0  0
 70 262   0   3   0   0  1  0
 71 120   0   1  34  35  0  0
 72 112   8   0   0   0  0  0
 73 120   0   1  36  14  0  0
 74 262   0   3   0   0  2  0
 75 120   0   1  37  15  0  0
 76 112   7   0   0   0  0  0
 77 120   0   1  29  38  0  0
 78 262   0   3   0   0  1  0
 79 120   0   1  28  39  0  0
 80 112   8   0   0   0  0  0
 81 120   0   1  37  30  0  0
 82 262   0   3   0   0  2  0
 83 120   0   1  36  31  0  0
 84 112   7   0   0   0  0  0
 85 120   0   1  12  40  0  0
 86 262   0   3   0   0  1  0
 87 120   0   1  13  41  0  0
 88 112   8   0   0   0  0  0
 89 120   0   1  42  11  0  0
 90 262   0   3   0   0  2  0
 91 120   0   1  43   9  0  0
 92 112   7   0   0   0  0  0
 93 120   0   1  44  45  0  0
 94 262   0   3   0   0  1  0
 95 120   0   1  46  47  0  0
 96 112   8   0   0   0  0  0
 97 120   0   1  48  49  0  0
 98 262   0   3   0   0  2  0
 99 120   0   1  50  51  0  0
100 112   7   0   0   0  0  0
101 120   0   1  26  41  0  0
102 262   0   3   0   0  1  0
103 120   0   1  27  40  0  0
104 112   8   0   0   0  0  0
105 120   0   1  10  52  0  0
106 262   0   3   0   0  2  0
107 120   0   1   8  53  0  0
108 112   7   0   0   0  0  0
109 120   0   1  37  54  0  0
110 262   0   3   0   0  1  0
111 120   0   1  36  55  0  0
112 112   8   0   0   0  0  0
113 120   0   1  56  19  0  0
114 262   0   3   0   0  2  0
115 120   0   1  57  17  0  0
116 112   7   0   0   0  0  0
117 120   0   1  58  45  0  0
118 262   0   3   0   0  1  0
119 120   0   1  59  47  0  0
120 112   8   0   0   0  0  0
121 120   0   1  37  40  0  0
122 262   0   3   0   0  2  0
123 120   0   1  36  41  0  0
124 112   7   0   0   0  0  0
125 120   0   1  60  61  0  0
126 262   0   3   0   0  1  0
127 120   0   1  62  63  0  0
128 112   8   0   0   0  0  0
129 120   0   1  64  65  0  0
130 262   0   3   0   0  2  0
131 120   0   1  66  67  0  0
132 112   7   0   0   0  0  0
133 120   0   1  32  68  0  0
134 262   0   3   0   0  1  0
135 120   0   1  34  69  0  0
136 112   8   0   0   0  0  0
137 120   0   1  46  33  0  0
138 262   0   3   0   0  2  0
139 120   0   1  44  35  0  0
140 112   7   0   0   0  0  0
141 120   0   1  70  71  0  0
142 262   0   3   0   0  1  0
143 120   0   1  72  73  0  0
144 112   8   0   0   0  0  0
145 120   0   1  56  33  0  0
146 262   0   3   0   0  2  0
147 120   0   1  57  35  0  0
148 112   7   0   0   0  0  0
149 120   0   1  72  11  0  0
150 262   0   3   0   0  1  0
151 120   0   1  70   9  0  0
152 112   8   0   0   0  0  0
153 120   0   1  74  21  0  0
154 262   0   3   0   0  2  0
155 120   0   1  75  20  0  0
156 112   7   0   0   0  0  0
157 120   0   1  75  38  0  0
158 262   0   3   0   0  1  0
159 120   0   1  74  39  0  0
160 112   8   0   0   0  0  0
161 120   0   1  74  76  0  0
162 262   0   3   0   0  2  0
163 120   0   1  75  77  0  0
164 112   7   0   0   0  0  0
165 120   0   1  44  78  0  0
166 262   0   3   0   0  1  0
167 120   0   1  46  79  0  0
168 112   8   0   0   0  0  0
169 120   0   1  80  19  0  0
170 262   0   3   0   0  2  0
171 120   0   1  81  17  0  0
172 112   7   0   0   0  0  0
173 120   0   1  24  82  0  0
174 262   0   3   0   0  1  0
175 120   0   1  22  83  0  0
176 112   8   0   0   0  0  0
177 120   0   1  60  84  0  0
178 262   0   3   0   0  2  0
179 120   0   1  62  85  0  0
180 112   7   0   0   0  0  0
181 120   0   1  64  86  0  0
182 262   0   3   0   0  1  0
183 120   0   1  66  87  0  0
184 112   8   0   0   0  0  0
185 120   0   1   8  88  0  0
186 262   0   3   0   0  2  0
187 120   0   1  10  89  0  0
188 112   7   0   0   0  0  0
189 120   0   1  90  52  0  0
190 262   0   3   0   0  1  0
191 120   0   1  91  53  0  0
192 112   8   0   0   0  0  0
193 120   0   1  38  76  0  0
194 262   0   3   0   0  2  0
195 120   0   1  39  77  0  0
196 112   7   0   0   0  0  0
197 120   0   1  62  92  0  0
198 262   0   3   0   0  1  0
199 120   0   1  60  93  0  0
200 112   8   0   0   0  0  0
201 120   0   1  75  61  0  0
202 262   0   3   0   0  2  0
203 120   0   1  74  63  0  0
204 112   7   0   0   0  0  0
205 120   0   1  94  82  0  0
206 262   0   3   0   0  1  0
207 120   0   1  95  83  0  0
208 112   8   0   0   0  0  0
209 120   0   1  72  63  0  0
210 262   0   3   0   0  2  0
211 120   0   1  70  61  0  0
212 112   7   0   0   0  0  0
213 120   0   1  96  47  0  0
214 262   0   3   0   0  1  0
215 120   0   1  97  45  0  0
216 112   8   0   0   0  0  0
217 120   0   1  38  40  0  0
218 262   0   3   0   0  2  0
219 120   0   1  39  41  0  0
220 112   7   0   0   0  0  0
221 120   0   1   2  98  0  0
222 262   0   3   0   0  1  0
223 120   0   1   2  99  0  0
224 112   8   0   0   0  0  0
225 120   0   1  59  68  0  0
226 262   0   3   0   0  2  0
227 120   0   1  58  69  0  0
228 112   7   0   0   0  0  0
229 120   0   1  81  79  0  0
230 262   0   3   0   0  1  0
231 120   0   1  80  78  0  0
232 112   8   0   0   0  0  0
233 120   0   1 100  69  0  0
234 262   0   3   0   0  2  0
235 120   0   1 101  68  0  0
236 112   7   0   0   0  0  0
237 120   0   1 102 103  0  0
238 262   0   3   0   0  1  0
239 120   0   1 104 105  0  0
240 112   8   0   0   0  0  0
241 120   0   1 102  15  0  0
242 262   0   3   0   0  2  0
243 120   0   1 104  14  0  0
244 112   7   0   0   0  0  0
245 120   0   1  60 106  0  0
246 262   0   3   0   0  1  0
247 120   0   1  62 107  0  0
248 112   8   0   0   0  0  0
249 120   0   1 108  78  0  0
250 262   0   3   0   0  2  0
251 120   0   1 109  79  0  0
252 112   7   0   0   0  0  0
253 120   0   1 110 111  0  0
254 262   0   3   0   0  1  0
255 120   0   1 112 113  0  0
256 112   8   0   0   0  0  0
257 120   0   1  96  33  0  0
258 262   0   3   0   0  2  0
259 120   0   1  97  35  0  0
260 112   7   0   0   0  0  0
261 120   0   1 114  31  0  0
262 262   0   3   0   0  1  0
263 120   0   1 115  30  0  0
264 112   8   0   0   0  0  0
265 120   0   1 116   5  0  0
266 262   0   3   0   0  2  0
267 120   0   1 117   7  0  0
268 112   7   0   0   0  0  0
269 120   0   1 118  53  0  0
270 262   0   3   0   0  1  0
271 120   0   1 119  52  0  0
272 112   8   0   0   0  0  0
273 120   0   1  75  92  0  0
274 262   0   3   0   0  2  0
275 120   0   1  74  93  0  0
276 112   7   0   0   0  0  0
277 120   0   1  46 107  0  0
278 262   0   3   0   0  1  0
279 120   0   1  44 106  0  0
280 112   8   0   0   0  0  0
281 120   0   1 120  52  0  0
282 262   0   3   0   0  2  0
283 120   0   1 121  53  0  0
284 112   7   0   0   0  0  0
285 120   0   1  60 122  0  0
286 262   0   3   0   0  1  0
287 120   0   1  62 123  0  0
288 112   8   0   0   0  0  0
289 120   0   1  59 124  0  0
290 262   0   3   0   0  2  0
291 120   0   1  58 125  0  0
292 112   7   0   0   0  0  0
293 120   0   1  90 106  0  0
294 262   0   3   0   0  1  0
295 120   0   1  91 107  0  0
296 112   8   0   0   0  0  0
297 120   0   1 119  68  0  0
298 262   0   3   0   0  2  0
299 120   0   1 118  69  0  0
300 112   7   0   0   0  0  0
301 120   0   1  58 107  0  0
302 262   0   3   0   0  1  0
303 120   0   1  59 106  0  0
304 112   8   0   0   0  0  0
305 120   0   1 126 127  0  0
306 262   0   3   0   0  2  0
307 120   0   1 128 129  0  0
308 112   7   0   0   0  0  0
309 120   0   1 112 127  0  0
310 262   0   3   0   0  1  0
311 120   0   1 110 129  0  0
312 112   8   0   0   0  0  0
313 120   0   1  60 130  0  0
314 262   0   3   0   0  2  0
315 120   0   1  62 131  0  0
316 112   7   0   0   0  0  0
317 120   0   1  44 122  0  0
318 262   0   3   0   0  1  0
319 120   0   1  46 123  0  0
320 112   8   0   0   0  0  0
321 120   0   1 126 132  0  0
322 262   0   3   0   0  2  0
323 120   0   1 128 133  0  0
[RF]
1          250 1 2 3 500 100 0 0 0 0 u
2          250 1 2 4 1000 100 0 0 0 1.5708 u
3          250 1 2 4 1000 100 0 0 0 -1.5708 u
4          375 1 2 4 1000 100 0 0 0 0 u
5          500 1 2 4 1000 100 0 0 0 3.14159 u
6          250 1 2 4 1000 100 0 0 0 0 u
7      215.278 1 2 3 500 100 0 0 0 0 u
8      215.278 1 2 3 500 100 0 0 0 3.14159 u
9       75.188 5 6 0 13300 100 0 0 0 0 u
10          125 1 2 3 500 100 0 0 0 0 u
11          125 1 2 3 500 100 0 0 0 3.14159 u

# Format of trapezoid gradients:
# id amplitude rise flat fall delay
# ..      Hz/m   us   us   us    us
[TRAP]
 1      -954861 570   60 570   0
 2            0  10 1080  10   0
 3       520833 310 2000 310   0
 4        15024 100  900 100   0
 5      37380.4 150  800 150   0
 6       -15024 100  900 100   0
 7     -37380.4 150  800 150   0
 8      -4815.4  60  980  60   0
 9      79800.8 210  680 210   0
10       4815.4  60  980  60   0
11     -79800.8 210  680 210   0
12      36901.1 150  800 150   0
13     -36901.1 150  800 150   0
14     -65039.1 190  720 190   0
15      65039.1 190  720 190   0
16     -20234.4 110  880 110   0
17       126826 260  580 260   0
18      20234.4 110  880 110   0
19      -126826 260  580 260   0
20      -142616 270  560 270   0
21       142616 270  560 270   0
22      54434.9 180  740 180   0
23     -95241.2 230  640 230   0
24     -54434.9 180  740 180   0
25      95241.2 230  640 230   0
26     -59878.4 180  740 180   0
27      59878.4 180  740 180   0
28     -66039.7 190  720 190   0
29      66039.7 190  720 190   0
30      -110113 240  620 240   0
31       110113 240  620 240   0
32      9819.63  80  940  80   0
33      -230593 330  440 330   0
34     -9819.63  80  940  80   0
35       230593 330  440 330   0
36     -85363.9 220  660 220   0
37      85363.9 220  660 220   0
38       158791 280  540 280   0
39      -158791 280  540 280   0
40       249203 340  420 340   0
41      -249203 340  420 340   0
42      97857.7 230  640 230   0
43     -97857.7 230  640 230   0
44      -104819 240  620 240   0
45     -50912.3 170  760 170   0
46       104819 240  620 240   0
47      50912.3 170  760 170   0
48      78777.7 210  680 210   0
49       194788 310  480 310   0
50     -78777.7 210  680 210   0
51      -194788 310  480 310   0
52       328809 380  340 380   0
53      -328809 380  340 380   0
54      -212461 320  460 320   0
55       212461 320  460 320   0
56       110642 240  620 240   0
57      -110642 240  620 240   0
58      -123727 250  600 250   0
59       123727 250  600 250   0
60       -72338 200  700 200   0
61       287930 360  380 360   0
62        72338 200  700 200   0
63      -287930 360  380 360   0
64     -31300.1 140  820 140   0
65       372024 400  300 400   0
66      31300.1 140  820 140   0
67      -372024 400  300 400   0
68       388934 400  300 400   0
69      -388934 400  300 400   0
70      -144810 270  560 270   0
71      11719.9  90  920  90   0
72       144810 270  560 270   0
73     -11719.9  90  920  90   0
74       138776 270  560 270   0
75      -138776 270  560 270   0
76      -175365 290  520 290   0
77       175365 290  520 290   0
78      -308089 370  360 370   0
79       308089 370  360 370   0
80       152683 280  540 280   0
81      -152683 280  540 280   0
82       435188 420  260 420   0
83      -435188 420  260 420   0
84       411726 410  280 410   0
85      -411726 410  280 410   0
86       484246 440  220 440   0
87      -484246 440  220 440   0
88      -509907 450  200 450   0
89       509907 450  200 450   0
90       117836 250  600 250   0
91      -117836 250  600 250   0
92      -459351 430  240 430   0
93       459351 430  240 430   0
94      91054.8 220  660 220   0
95     -91054.8 220  660 220   0
96      -187800 300  500 300   0
97       187800 300  500 300   0
98       582462 470  160 470   0
99      -582462 470  160 470   0
100       131162 260  580 260   0
101      -131162 260  580 260   0
102       202856 310  480 310   0
103      24157.4 120  860 120   0
104      -202856 310  480 310   0
105     -24157.4 120  860 120   0
106       554865 460  180 460   0
107      -554865 460  180 460   0
108       166934 290  520 290   0
109      -166934 290  520 290   0
110     -48464.6 170  760 170   0
111      -610948 480  140 480   0
112      48464.6 170  760 170   0
113       610948 480  140 480   0
114      -211877 320  460 320   0
115       211877 320  460 320   0
116      -218298 320  460 320   0
117       218298 320  460 320   0
118      -173116 290  520 290   0
119       173116 290  520 290   0
120       181540 300  500 300   0
121      -181540 300  500 300   0
122      -630040 480  140 480   0
123       630040 480  140 480   0
124      -528118 450  200 450   0
125       528118 450  200 450   0
126     -42621.4 160  780 160   0
127       722265 510   80 510   0
128      42621.4 160  780 160   0
129      -722265 510   80 510   0
130       690499 500  100 500   0
131      -690499 500  100 500   0
132       742328 510   80 510   0
133      -742328 510   80 510   0
134      -775536 520   60 520   0
135       775536 520   60 520   0
136      25814.5 130  840 130   0
137      -809908 530   40 530   0
138     -25814.5 130  840 130   0
139       809908 530   40 530   0
140       250401 340  420 340   0
141      -250401 340  420 340   0
142       227637 330  440 330   0
143      -227637 330  440 330   0
144      -866646 540   20 540   0
145       866646 540   20 540   0
146       273771 350  400 350   0
147      -273771 350  400 350   0
148      -903926 550    0 550   0
149       903926 550    0 550   0
150       284239 360  380 360   0
151      -284239 360  380 360   0
152       659774 490  120 490   0
153      -659774 490  120 490   0
154       925448 550    0 550   0
155      -925448 550    0 550   0
156      -234141 330  440 330   0
157       234141 330  440 330   0
158       291006 360  380 360   0
159      -291006 360  380 360   0
160      -350112 390  320 390   0
161       350112 390  320 390   0
162      -268308 350  400 350   0
163       268308 350  400 350   0
164       196517 310  480 310   0
165      -196517 310  480 310   0
166      -240645 330  440 330   0
167       240645 330  440 330   0
168      -256990 340  420 340   0
169       256990 340  420 340   0
170       267094 350  400 350   0
171      -267094 350  400 350   0

# Format of ADC events:
# id num dwell delay freqPPM phasePPM freq phase phase_id
# ..  ..    ns    us     ppm  rad/MHz   Hz   rad       ..
[ADC]
1 200 10000 310 0 0 0 0 0
2 200 10000 310 0 0 0 3.14159 0

# Sequence Shapes
[SHAPES]

shape_id 1
num_samples 2
1
1

shape_id 2
num_samples 2
0
0

shape_id 3
num_samples 2
0
1000

shape_id 4
num_samples 2
0
2000

shape_id 5
num_samples 26600
3.5e-06
0
0
6
1e-07
0
0
12
1e-07
0
0
11
1e-07
0
0
11
1e-07
0
0
11
1e-07
0
0
10
1e-07
0
0
10
1e-07
0
0
10
1e-07
0
0
9
1e-07
0
0
10
1e-07
0
0
9
1e-07
0
0
8
1e-07
0
0
9
1e-07
0
0
8
1e-07
0
0
8
1e-07
0
0
7
1e-07
0
0
8
1e-07
0
0
7
1e-07
0
0
7
1e-07
0
0
7
1e-07
0
0
7
1e-07
0
0
7
1e-07
0
0
6
1e-07
0
0
7
1e-07
0
0
6
1e-07
0
0
6
1e-07
0
0
6
1e-07
0
0
5
1e-07
0
0
6
1e-07
0
0
6
1e-07
0
0
5
1e-07
0
0
5
1e-07
0
0
5
1e-07
0
0
5
1e-07
0
0
5
1e-07
0
0
5
1e-07
0
0
5
1e-07
0
0
4
1e-07
0
0
5
1e-07
0
0
4
1e-07
0
0
4
1e-07
0
0
4
1e-07
0
0
5
1e-07
0
0
4
1e-07
0
0
3
1e-07
0
0
4
1e-07
0
0
4
1e-07
0
0
4
1e-07
0
0
3
1e-07
0
0
4
1e-07
0
0
3
1e-07
0
0
4
1e-07
0
0
3
1e-07
0
0
3
1e-07
0
0
3
1e-07
0
0
4
1e-07
0
0
3
1e-07
0
0
3
1e-07
0
0
3
1e-07
0
0
2
1e-07
0
0
3
1e-07
0
0
3
1e-07
0
0
3
1e-07
0
0
2
1e-07
0
0
3
1e-07
0
0
2
1e-07
0
0
3
1e-07
0
0
2
1e-07
0
0
3
1e-07
0
0
2
1e-07
0
0
2
1e-07
0
0
3
1e-07
0
0
2
1e-07
0
0
2
1e-07
0
0
2
1e-07
0
0
2
1e-07
0
0
2
1e-07
0
0
2
1e-07
0
0
2
1e-07
0
0
2
1e-07
0
0
2
1e-07
0
0
1
1e-07
0
0
2
1e-07
0
0
2
1e-07
0
0
2
1e-07
0
0
1
1e-07
0
0
2
1e-07
0
0
1
1e-07
0
0
2
1e-07
0
0
1
1e-07
0
0
2
1e-07
0
0
1
1e-07
0
0
2
1e-07
0
0
1
1e-07
0
0
1
1e-07
0
0
2
1e-07
0
0
1
1e-07
0
0
1
1e-07
0
0
1
1e-07
0
0
2
1e-07
0
0
1
1e-07
0
0
1
1e-07
0
0
1
1e-07
0
0
1
1e-07
0
0
1
1e-07
0
0
1
1e-07
0
0
1
1e-07
0
0
1
1e-07
0
0
1
1e-07
0
0
1
1e-07
0
0
1
1e-07
0
0
1
1e-07
0
0
0
1e-07
0
0
1
1e-07
0
0
1
1e-07
0
0
1
1e-07
0
0
0
1e-07
0
0
1
1e-07
0
0
1
1e-07
0
0
1
1e-07
0
0
0
1e-07
0
0
1
1e-07
0
0
0
1e-07
0
0
1
1e-07
0
0
0
1e-07
0
0
1
1e-07
0
0
1
1e-07
0
0
0
1e-07
0
0
0
1e-07
0
0
1
1e-07
0
0
0
1e-07
0
0
1
1e-07
0
0
0
1e-07
0
0
0
1e-07
0
0
1
1e-07
0
0
0
1e-07
0
0
0
1e-07
0
0
1
1e-07
0
0
0
1e-07
0
0
0
1e-07
0
0
1
1e-07
0
0
0
1e-07
0
0
0
1e-07
0
0
0
1e-07
0
0
0
1e-07
0
0
0
1e-07
0
0
1
1e-07
0
0
0
1e-07
0
0
0
1e-07
0
0
0
1e-07
0
0
0
1e-07
0
0
0
1e-07
0
0
0
1e-07
0
0
0
1e-07
0
0
0
1e-07
0
0
0
1e-07
0
0
0
1e-07
0
0
0
1e-07
0
0
0
1e-07
0
0
0
1e-07
0
0
0
1e-07
0
0
0
1e-07
0
0
0
1e-07
0
0
0
1e-07
0
1e-07
0
0
0
1e-07
0
0
0
1e-07
0
0
0
1e-07
0
0
0
1e-07
0
0
0
1e-07
0
1e-07
0
0
0
1e-07
0
0
0
1e-07
0
0
0
1e-07
0
1e-07
0
0
0
1e-07
0
0
0
1e-07
0
1e-07
0
0
0
1e-07
0
0
0
1e-07
0
1e-07
0
0
0
1e-07
0
0
0
1e-07
0
1e-07
0
0
0
1e-07
0
0
0
1e-07
0
1e-07
0
0
0
1e-07
0
1e-07
0
0
0
1e-07
0
1e-07
0
0
0
1e-07
0
0
0
1e-07
0
1e-07
0
0
0
1e-07
0
1e-07
0
0
0
1e-07
0
1e-07
0
1e-07
0
0
0
1e-07
0
1e-07
0
0
0
1e-07
0
1e-07
0
0
0
1e-07
0
1e-07
0
1e-07
0
0
0
1e-07
0
1e-07
0
0
0
1e-07
0
1e-07
0
1e-07
0
0
0
1e-07
0
1e-07
0
1e-07
0
0
0
1e-07
0
1e-07
0
1e-07
0
0
0
1e-07
0
1e-07
0
1e-07
0
1e-07
0
0
0
1e-07
0
1e-07
0
1e-07
0
1e-07
0
1e-07
0
0
0
1e-07
0
1e-07
0
1e-07
0
1e-07
0
1e-07
0
0
0
1e-07
0
1e-07
0
1e-07
0
1e-07
0
1e-07
0
1e-07
0
0
0
1e-07
0
1e-07
0
1e-07
0
1e-07
0
1e-07
0
1e-07
0
1e-07
0
1e-07
0
1e-07
0
1e-07
0
1e-07
0
1e-07
0
1e-07
0
0
0
1e-07
0
1e-07
0
1e-07
0
1e-07
0
1e-07
0
1e-07
0
1e-07
0
1e-07
0
1e-07
0
1e-07
0
1e-07
1e-07
0
0
1e-07
0
1e-07
0
1e-07
0
1e-07
0
1e-07
0
1e-07
0
1e-07
0
1e-07
0
1e-07
0
1e-07
0
1e-07
0
1e-07
1e-07
0
0
1e-07
0
1e-07
0
1e-07
0
1e-07
0
1e-07
0
1e-07
1e-07
0
0
1e-07
0
1e-07
0
1e-07
0
1e-07
0
1e-07
1e-07
0
0
1e-07
0
1e-07
0
1e-07
0
1e-07
1e-07
0
0
1e-07
0
1e-07
0
1e-07
1e-07
0
0
1e-07
0
1e-07
0
1e-07
1e-07
0
0
1e-07
0
1e-07
0
1e-07
1e-07
0
0
1e-07
0
1e-07
0
1e-07
1e-07
0
0
1e-07
0
1e-07
1e-07
0
0
1e-07
0
1e-07
1e-07
0
0
1e-07
0
1e-07
1e-07
0
0
1e-07
0
1e-07
1e-07
0
0
1e-07
0
1e-07
1e-07
0
0
1e-07
0
1e-07
1e-07
0
0
1e-07
1e-07
0
0
1e-07
0
1e-07
1e-07
0
0
1e-07
1e-07
0
0
1e-07
0
1e-07
1e-07
0
0
1e-07
1e-07
0
0
1e-07
1e-07
0
0
1e-07
0
1e-07
1e-07
0
0
1e-07
1e-07
0
0
1e-07
1e-07
0
0
1e-07
1e-07
0
0
1e-07
1e-07
0
0
1e-07
0
1e-07
1e-07
0
0
1e-07
1e-07
0
0
1e-07
1e-07
0
0
1e-07
1e-07
0
0
1e-07
1e-07
1
0
1e-07
1e-07
0
0
1e-07
1e-07
0
0
1e-07
1e-07
0
0
1e-07
1e-07
0
0
1e-07
1e-07
0
0
1e-07
1e-07
1
0
1e-07
1e-07
0
0
1e-07
1e-07
0
0
1e-07
1e-07
1
0
1e-07
1e-07
0
0
1e-07
1e-07
1
0
1e-07
1e-07
0
0
1e-07
1e-07
1
0
1e-07
1e-07
1
0
1e-07
1e-07
0
0
1e-07
1e-07
1
0
1e-07
1e-07
1
0
1e-07
1e-07
1
0
1e-07
1e-07
1
0
1e-07
1e-07
1
0
1e-07
1e-07
1
0
1e-07
1e-07
1
0
1e-07
1e-07
2
0
1e-07
1e-07
1
0
1e-07
1e-07
2
0
1e-07
1e-07
1
0
1e-07
1e-07
2
0
1e-07
1e-07
2
0
1e-07
1e-07
2
0
1e-07
1e-07
3
0
1e-07
1e-07
2
0
1e-07
1e-07
3
0
1e-07
1e-07
3
0
1e-07
1e-07
4
0
1e-07
1e-07
3
0
1e-07
1e-07
5
0
1e-07
1e-07
4
0
1e-07
1e-07
6
0
1e-07
1e-07
7
0
1e-07
1e-07
8
0
1e-07
1e-07
11
0
1e-07
1e-07
22
0
1e-07
1e-07
25
2e-07
1e-07
1e-07
21
2e-07
1e-07
1e-07
11
2e-07
1e-07
1e-07
7
2e-07
1e-07
1e-07
6
2e-07
1e-07
1e-07
5
2e-07
1e-07
1e-07
4
2e-07
1e-07
1e-07
4
2e-07
1e-07
1e-07
3
2e-07
1e-07
1e-07
3
2e-07
1e-07
1e-07
2
2e-07
1e-07
1e-07
3
2e-07
1e-07
1e-07
1
2e-07
1e-07
1e-07
2
2e-07
1e-07
1e-07
2
2e-07
1e-07
1e-07
1
2e-07
1e-07
1e-07
1
2e-07
1e-07
1e-07
1
2e-07
1e-07
1e-07
1
2e-07
1e-07
1e-07
1
2e-07
1e-07
1e-07
1
2e-07
1e-07
1e-07
0
2e-07
1e-07
1e-07
1
2e-07
1e-07
1e-07
0
2e-07
1e-07
1e-07
1
2e-07
1e-07
1e-07
0
2e-07
1e-07
1e-07
0
2e-07
1e-07
1e-07
0
2e-07
1e-07
1e-07
1
2e-07
1e-07
1e-07
0
2e-07
1e-07
1e-07
0
2e-07
1e-07
2e-07
1e-07
1e-07
0
2e-07
1e-07
1e-07
0
2e-07
1e-07
1e-07
0
2e-07
1e-07
1e-07
0
2e-07
1e-07
2e-07
1e-07
1e-07
0
2e-07
1e-07
1e-07
0
2e-07
1e-07
2e-07
1e-07
1e-07
0
2e-07
1e-07
2e-07
1e-07
1e-07
0
2e-07
1e-07
2e-07
1e-07
1e-07
0
2e-07
1e-07
2e-07
1e-07
2e-07
1e-07
1e-07
0
2e-07
1e-07
2e-07
1e-07
2e-07
1e-07
2e-07
1e-07
1e-07
0
2e-07
1e-07
2e-07
1e-07
2e-07
1e-07
2e-07
1e-07
2e-07
1e-07
2e-07
1e-07
1e-07
0
2e-07
1e-07
2e-07
1e-07
2e-07
1e-07
2e-07
1e-07
2e-07
1e-07
2e-07
1e-07
2e-07
1e-07
2e-07
1e-07
2e-07
2e-07
0
1e-07
2e-07
1e-07
2e-07
1e-07
2e-07
1e-07
2e-07
1e-07
2e-07
1e-07
2e-07
2e-07
0
1e-07
2e-07
1e-07
2e-07
1e-07
2e-07
1e-07
2e-07
2e-07
0
1e-07
2e-07
1e-07
2e-07
2e-07
0
1e-07
2e-07
1e-07
2e-07
1e-07
2e-07
2e-07
0
1e-07
2e-07
2e-07
0
1e-07
2e-07
1e-07
2e-07
2e-07
0
1e-07
2e-07
2e-07
0
1e-07
2e-07
1e-07
2e-07
2e-07
0
1e-07
2e-07
2e-07
0
1e-07
2e-07
2e-07
0
1e-07
2e-07
2e-07
0
1e-07
2e-07
2e-07
0
1e-07
2e-07
2e-07
0
1e-07
2e-07
2e-07
0
1e-07
2e-07
2e-07
1
1e-07
2e-07
2e-07
0
1e-07
2e-07
2e-07
0
1e-07
2e-07
2e-07
1
1e-07
2e-07
2e-07
1
1e-07
2e-07
2e-07
1
1e-07
2e-07
2e-07
1
1e-07
2e-07
2e-07
1
1e-07
2e-07
2e-07
1
1e-07
2e-07
2e-07
2
1e-07
2e-07
2e-07
2
1e-07
2e-07
2e-07
3
1e-07
2e-07
2e-07
3
1e-07
2e-07
2e-07
4
1e-07
2e-07
2e-07
4
1e-07
2e-07
2e-07
7
1e-07
2e-07
2e-07
12
1e-07
2e-07
2e-07
27
3e-07
2e-07
2e-07
12
3e-07
2e-07
2e-07
6
3e-07
2e-07
2e-07
5
3e-07
2e-07
2e-07
3
3e-07
2e-07
2e-07
3
3e-07
2e-07
2e-07
2
3e-07
2e-07
2e-07
2
3e-07
2e-07
2e-07
1
3e-07
2e-07
2e-07
2
3e-07
2e-07
2e-07
0
3e-07
2e-07
2e-07
1
3e-07
2e-07
2e-07
1
3e-07
2e-07
2e-07
0
3e-07
2e-07
2e-07
1
3e-07
2e-07
2e-07
0
3e-07
2e-07
2e-07
0
3e-07
2e-07
2e-07
0
3e-07
2e-07
2e-07
0
3e-07
2e-07
2e-07
0
3e-07
2e-07
3e-07
2e-07
2e-07
0
3e-07
2e-07
2e-07
0
3e-07
2e-07
3e-07
2e-07
2e-07
0
3e-07
2e-07
3e-07
2e-07
3e-07
2e-07
2e-07
0
3e-07
2e-07
3e-07
2e-07
3e-07
2e-07
3e-07
2e-07
2e-07
0
3e-07
2e-07
3e-07
2e-07
3e-07
2e-07
3e-07
2e-07
3e-07
2e-07
3e-07
2e-07
3e-07
2e-07
3e-07
2e-07
3e-07
2e-07
3e-07
2e-07
3e-07
3e-07
0
2e-07
3e-07
2e-07
3e-07
2e-07
3e-07
2e-07
3e-07
3e-07
0
2e-07
3e-07
2e-07
3e-07
3e-07
0
2e-07
3e-07
2e-07
3e-07
3e-07
0
2e-07
3e-07
2e-07
3e-07
3e-07
0
2e-07
3e-07
3e-07
0
2e-07
3e-07
3e-07
0
2e-07
3e-07
3e-07
0
2e-07
3e-07
3e-07
0
2e-07
3e-07
3e-07
0
2e-07
3e-07
3e-07
1
2e-07
3e-07
3e-07
0
2e-07
3e-07
3e-07
1
2e-07
3e-07
3e-07
1
2e-07
3e-07
3e-07
2
2e-07
3e-07
3e-07
1
2e-07
3e-07
3e-07
3
2e-07
3e-07
3e-07
2
2e-07
3e-07
3e-07
5
2e-07
3e-07
3e-07
6
2e-07
3e-07
3e-07
36
4e-07
3e-07
3e-07
6
4e-07
3e-07
3e-07
4
4e-07
3e-07
3e-07
3
4e-07
3e-07
3e-07
2
4e-07
3e-07
3e-07
1
4e-07
3e-07
3e-07
2
4e-07
3e-07
3e-07
0
4e-07
3e-07
3e-07
1
4e-07
3e-07
3e-07
0
4e-07
3e-07
3e-07
1
4e-07
3e-07
3e-07
0
4e-07
3e-07
3e-07
0
4e-07
3e-07
4e-07
3e-07
3e-07
0
4e-07
3e-07
3e-07
0
4e-07
3e-07
4e-07
3e-07
3e-07
0
4e-07
3e-07
4e-07
3e-07
4e-07
3e-07
3e-07
0
4e-07
3e-07
4e-07
3e-07
4e-07
3e-07
4e-07
3e-07
4e-07
3e-07
4e-07
3e-07
4e-07
3e-07
4e-07
3e-07
4e-07
3e-07
4e-07
3e-07
4e-07
3e-07
4e-07
4e-07
0
3e-07
4e-07
3e-07
4e-07
3e-07
4e-07
4e-07
0
3e-07
4e-07
3e-07
4e-07
4e-07
0
3e-07
4e-07
4e-07
0
3e-07
4e-07
4e-07
0
3e-07
4e-07
4e-07
0
3e-07
4e-07
4e-07
0
3e-07
4e-07
4e-07
1
3e-07
4e-07
4e-07
0
3e-07
4e-07
4e-07
1
3e-07
4e-07
4e-07
1
3e-07
4e-07
4e-07
2
3e-07
4e-07
4e-07
3
3e-07
4e-07
4e-07
4
3e-07
4e-07
4e-07
8
3e-07
4e-07
4e-07
18
5e-07
4e-07
4e-07
8
5e-07
4e-07
4e-07
4
5e-07
4e-07
4e-07
2
5e-07
4e-07
4e-07
2
5e-07
4e-07
4e-07
1
5e-07
4e-07
4e-07
1
5e-07
4e-07
4e-07
0
5e-07
4e-07
4e-07
1
5e-07
4e-07
4e-07
0
5e-07
4e-07
4e-07
0
5e-07
4e-07
5e-07
4e-07
4e-07
0
5e-07
4e-07
4e-07
0
5e-07
4e-07
5e-07
4e-07
5e-07
4e-07
4e-07
0
5e-07
4e-07
5e-07
4e-07
5e-07
4e-07
5e-07
4e-07
5e-07
4e-07
5e-07
4e-07
5e-07
4e-07
5e-07
4e-07
5e-07
5e-07
0
4e-07
5e-07
4e-07
5e-07
4e-07
5e-07
5e-07
0
4e-07
5e-07
4e-07
5e-07
5e-07
0
4e-07
5e-07
5e-07
0
4e-07
5e-07
5e-07
0
4e-07
5e-07
5e-07
0
4e-07
5e-07
5e-07
1
4e-07
5e-07
5e-07
1
4e-07
5e-07
5e-07
1
4e-07
5e-07
5e-07
2
4e-07
5e-07
5e-07
4
4e-07
5e-07
5e-07
7
4e-07
5e-07
5e-07
15
6e-07
5e-07
5e-07
7
6e-07
5e-07
5e-07
3
6e-07
5e-07
5e-07
2
6e-07
5e-07
5e-07
2
6e-07
5e-07
5e-07
0
6e-07
5e-07
5e-07
1
6e-07
5e-07
5e-07
0
6e-07
5e-07
5e-07
0
6e-07
5e-07
5e-07
0
6e-07
5e-07
6e-07
5e-07
5e-07
0
6e-07
5e-07
6e-07
5e-07
6e-07
5e-07
5e-07
0
6e-07
5e-07
6e-07
5e-07
6e-07
5e-07
6e-07
5e-07
6e-07
5e-07
6e-07
6e-07
0
5e-07
6e-07
5e-07
6e-07
5e-07
6e-07
6e-07
0
5e-07
6e-07
5e-07
6e-07
6e-07
0
5e-07
6e-07
6e-07
0
5e-07
6e-07
6e-07
0
5e-07
6e-07
6e-07
1
5e-07
6e-07
6e-07
1
5e-07
6e-07
6e-07
1
5e-07
6e-07
6e-07
3
5e-07
6e-07
6e-07
5
5e-07
6e-07
6e-07
18
7e-07
6e-07
6e-07
5
7e-07
6e-07
6e-07
3
7e-07
6e-07
6e-07
1
7e-07
6e-07
6e-07
1
7e-07
6e-07
6e-07
1
7e-07
6e-07
6e-07
0
7e-07
6e-07
6e-07
0
7e-07
6e-07
7e-07
6e-07
6e-07
0
7e-07
6e-07
7e-07
6e-07
6e-07
0
7e-07
6e-07
7e-07
6e-07
7e-07
6e-07
7e-07
6e-07
7e-07
6e-07
7e-07
6e-07
7e-07
7e-07
0
6e-07
7e-07
6e-07
7e-07
7e-07
0
6e-07
7e-07
7e-07
0
6e-07
7e-07
6e-07
7e-07
7e-07
1
6e-07
7e-07
7e-07
0
6e-07
7e-07
7e-07
1
6e-07
7e-07
7e-07
2
6e-07
7e-07
7e-07
4
6e-07
7e-07
7e-07
20
8e-07
7e-07
7e-07
4
8e-07
7e-07
7e-07
2
8e-07
7e-07
7e-07
1
8e-07
7e-07
7e-07
1
8e-07
7e-07
7e-07
0
8e-07
7e-07
7e-07
0
8e-07
7e-07
8e-07
7e-07
7e-07
0
8e-07
7e-07
8e-07
7e-07
8e-07
7e-07
7e-07
0
8e-07
7e-07
8e-07
7e-07
8e-07
8e-07
0
7e-07
8e-07
7e-07
8e-07
7e-07
8e-07
8e-07
0
7e-07
8e-07
8e-07
0
7e-07
8e-07
8e-07
0
7e-07
8e-07
8e-07
0
7e-07
8e-07
8e-07
1
7e-07
8e-07
8e-07
1
7e-07
8e-07
8e-07
4
7e-07
8e-07
8e-07
20
9e-07
8e-07
8e-07
3
9e-07
8e-07
8e-07
2
9e-07
8e-07
8e-07
0
9e-07
8e-07
8e-07
1
9e-07
8e-07
8e-07
0
9e-07
8e-07
9e-07
8e-07
8e-07
0
9e-07
8e-07
9e-07
8e-07
9e-07
8e-07
9e-07
8e-07
9e-07
8e-07
9e-07
8e-07
9e-07
8e-07
9e-07
9e-07
0
8e-07
9e-07
8e-07
9e-07
9e-07
0
8e-07
9e-07
9e-07
0
8e-07
9e-07
9e-07
1
8e-07
9e-07
9e-07
1
8e-07
9e-07
9e-07
3
8e-07
9e-07
9e-07
19
1e-06
9e-07
9e-07
3
1e-06
9e-07
9e-07
1
1e-06
9e-07
9e-07
1
1e-06
9e-07
9e-07
0
1e-06
9e-07
9e-07
0
1e-06
9e-07
1e-06
9e-07
9e-07
0
1e-06
9e-07
1e-06
9e-07
1e-06
9e-07
1e-06
9e-07
1e-06
9e-07
1e-06
1e-06
0
9e-07
1e-06
9e-07
1e-06
1e-06
0
9e-07
1e-06
1e-06
1
9e-07
1e-06
1e-06
0
9e-07
1e-06
1e-06
2
9e-07
1e-06
1e-06
5
9e-07
1e-06
1e-06
8
1.1e-06
1e-06
1e-06
5
1.1e-06
1e-06
1e-06
2
1.1e-06
1e-06
1e-06
0
1.1e-06
1e-06
1e-06
0
1.1e-06
1e-06
1e-06
0
1.1e-06
1e-06
1e-06
0
1.1e-06
1e-06
1.1e-06
1e-06
1.1e-06
1e-06
1.1e-06
1e-06
1.1e-06
1e-06
1.1e-06
1e-06
1.1e-06
1.1e-06
0
1e-06
1.1e-06
1e-06
1.1e-06
1.1e-06
0
1e-06
1.1e-06
1.1e-06
1
1e-06
1.1e-06
1.1e-06
1
1e-06
1.1e-06
1.1e-06
3
1e-06
1.1e-06
1.1e-06
13
1.2e-06
1.1e-06
1.1e-06
3
1.2e-06
1.1e-06
1.1e-06
1
1.2e-06
1.1e-06
1.1e-06
1
1.2e-06
1.1e-06
1.1e-06
0
1.2e-06
1.1e-06
1.2e-06
1.1e-06
1.1e-06
0
1.2e-06
1.1e-06
1.2e-06
1.1e-06
1.2e-06
1.1e-06
1.2e-06
1.1e-06
1.2e-06
1.2e-06
0
1.1e-06
1.2e-06
1.1e-06
1.2e-06
1.2e-06
0
1.1e-06
1.2e-06
1.2e-06
1
1.1e-06
1.2e-06
1.2e-06
1
1.1e-06
1.2e-06
1.2e-06
4
1.1e-06
1.2e-06
1.2e-06
8
1.3e-06
1.2e-06
1.2e-06
4
1.3e-06
1.2e-06
1.2e-06
2
1.3e-06
1.2e-06
1.2e-06
0
1.3e-06
1.2e-06
1.2e-06
0
1.3e-06
1.2e-06
1.3e-06
1.2e-06
1.2e-06
0
1.3e-06
1.2e-06
1.3e-06
1.2e-06
1.3e-06
1.2e-06
1.3e-06
1.2e-06
1.3e-06
1.3e-06
0
1.2e-06
1.3e-06
1.3e-06
0
1.2e-06
1.3e-06
1.3e-06
0
1.2e-06
1.3e-06
1.3e-06
1
1.2e-06
1.3e-06
1.3e-06
3
1.2e-06
1.3e-06
1.3e-06
10
1.4e-06
1.3e-06
1.3e-06
3
1.4e-06
1.3e-06
1.3e-06
1
1.4e-06
1.3e-06
1.3e-06
1
1.4e-06
1.3e-06
1.4e-06
1.3e-06
1.3e-06
0
1.4e-06
1.3e-06
1.4e-06
1.3e-06
1.4e-06
1.3e-06
1.4e-06
1.3e-06
1.4e-06
1.4e-06
0
1.3e-06
1.4e-06
1.3e-06
1.4e-06
1.4e-06
0
1.3e-06
1.4e-06
1.4e-06
1
1.3e-06
1.4e-06
1.4e-06
3
1.3e-06
1.4e-06
1.4e-06
10
1.5e-06
1.4e-06
1.4e-06
3
1.5e-06
1.4e-06
1.4e-06
1
1.5e-06
1.4e-06
1.4e-06
0
1.5e-06
1.4e-06
1.5e-06
1.4e-06
1.4e-06
0
1.5e-06
1.4e-06
1.5e-06
1.4e-06
1.5e-06
1.4e-06
1.5e-06
1.5e-06
0
1.4e-06
1.5e-06
1.4e-06
1.5e-06
1.5e-06
0
1.4e-06
1.5e-06
1.5e-06
1
1.4e-06
1.5e-06
1.5e-06
3
1.4e-06
1.5e-06
1.5e-06
8
1.6e-06
1.5e-06
1.5e-06
3
1.6e-06
1.5e-06
1.5e-06
1
1.6e-06
1.5e-06
1.5e-06
0
1.6e-06
1.5e-06
1.5e-06
0
1.6e-06
1.5e-06
1.6e-06
1.5e-06
1.6e-06
1.5e-06
1.6e-06
1.5e-06
1.6e-06
1.5e-06
1.6e-06
1.6e-06
0
1.5e-06
1.6e-06
1.6e-06
0
1.5e-06
1.6e-06
1.6e-06
1
1.5e-06
1.6e-06
1.6e-06
16
1.7e-06
1.6e-06
1.6e-06
2
1.7e-06
1.6e-06
1.6e-06
0
1.7e-06
1.6e-06
1.7e-06
1.6e-06
1.6e-06
0
